time,position,velocity,acceleration
0.0,-0.004336743440719104,0.0,0.0
0.003003003003003003,-0.004336743397286593,4.336734749838371e-08,2.885371289958888e-05
0.006006006006006006,-0.0043367430937808794,1.731219301120504e-07,5.753395658334749e-05
0.009009009009009009,-0.004336742271562493,3.887433417586406e-07,8.604107903365486e-05
0.012012012012012012,-0.0043367406735531685,6.897122213539756e-07,0.00011437542823289001
0.015015015015015015,-0.004336738044232718,1.075510252799769e-06,0.00014253735216343717
0.018018018018018018,-0.004336734129635891,1.5456201649925337e-06,0.00017052719880767016
0.02102102102102102,-0.004336728677349224,2.0995257318208785e-06,0.0001983453161479628
0.024024024024024024,-0.004336721436507932,2.7367117721651963e-06,0.0002259920521666993
0.02702702702702703,-0.0043367121577927315,3.456664149899399e-06,0.00025346775484626216
0.03003003003003003,-0.00433670059342674,4.258869773886796e-06,0.00028077277216902174
0.03303303303303303,-0.004336686497172305,5.142816597988149e-06,0.00030790745211736574
0.036036036036036036,-0.0043366696243278885,6.10799362104616e-06,0.0003348721426736645
0.03903903903903904,-0.0043366497317249226,7.153890886908492e-06,0.000361667191820304
0.04204204204204204,-0.004336626577724665,8.279999484404887e-06,0.00038829294753965973
0.04504504504504504,-0.004336599922215076,9.485811547361967e-06,0.0004147497578141073
0.04804804804804805,-0.004336569526607659,1.0770820254597e-05,0.00044103797062603443
0.05105105105105105,-0.004336535153834334,1.213451982992039e-05,0.00046715793395780796
0.05405405405405406,-0.004336496568344313,1.357640554213379e-05,0.0004931099957918173
0.057057057057057055,-0.004336453536100932,1.509597370503025e-05,0.0005188945041104363
0.06006006006006006,-0.004336405824578541,1.669272167739873e-05,0.0005445118068960406
0.06306306306306306,-0.004336353202759349,1.836614786301482e-05,0.0005699622521310177
0.06606606606606606,-0.004336295441130287,2.0115751710650344e-05,0.0005952461877977416
0.06906906906906907,-0.004336232311679883,2.1941033714066192e-05,0.000620363961878586
0.07207207207207207,-0.004336163587895106,2.384149541201895e-05,0.0006453159223559378
0.07507507507507508,-0.004336089044758247,2.5816639388255244e-05,0.0006701024172121785
0.07807807807807808,-0.004336008458743756,2.7865969271512843e-05,0.0006947237944296752
0.08108108108108109,-0.004335921607815128,2.9988989735523462e-05,0.0007191804019908129
0.08408408408408408,-0.004335828271421756,3.218520649901223e-05,0.0007434725878779653
0.08708708708708708,-0.004335728230495786,3.445412632569042e-05,0.0007676007000735228
0.09009009009009009,-0.0043356212674489905,3.679525702426879e-05,0.0007915650865598532
0.09309309309309309,-0.004335507166169624,3.920810744844532e-05,0.0008153660953193441
0.0960960960960961,-0.004335385712019282,4.169218749691293e-05,0.0008390040743343668
0.0990990990990991,-0.00433525669182977,4.424700811335425e-05,0.0008624793715873028
0.1021021021021021,-0.004335119893899959,4.687208128644708e-05,0.0008857923350605278
0.10510510510510511,-0.004334975107992658,4.956692004985598e-05,0.0009089433127364276
0.10810810810810811,-0.00433482212533146,5.2331038482246006e-05,0.0009319326525973788
0.1111111111111111,-0.0043346607385976125,5.5163951707266705e-05,0.0009547607026257595
0.11411411411411411,-0.0043344907419268835,5.8065175893561916e-05,0.0009774278108039434
0.11711711711711711,-0.004334311930906418,6.1034228254769536e-05,0.0009999343251143131
0.12012012012012012,-0.004334124102571602,6.407062704951816e-05,0.0010222805935392511
0.12312312312312312,-0.004333927055402917,6.717389158142828e-05,0.0010444669640611321
0.12612612612612611,-0.004333720589322812,7.03435421991127e-05,0.0010664937846623342
0.12912912912912913,-0.004333504505692568,7.357910029617896e-05,0.0010883614033252416
0.13213213213213212,-0.004333278607309138,7.688008831122127e-05,0.0011100701680322247
0.13513513513513514,-0.004333042698402042,8.024602972783019e-05,0.0011316204267656704
0.13813813813813813,-0.004332796584630199,8.367644907458739e-05,0.0011530125275079498
0.14114114114114115,-0.004332540073078803,8.717087192506678e-05,0.0011742468182414471
0.14414414414414414,-0.004332272972256187,9.072882489783406e-05,0.0011953236469485424
0.14714714714714713,-0.004331995092090675,9.434983565644452e-05,0.0012162433616116075
0.15015015015015015,-0.00433170624392746,9.803343290945327e-05,0.0012370063102130294
0.15315315315315314,-0.004331406240525444,0.00010177914641039767,0.001257612840735182
0.15615615615615616,-0.004331094896054111,0.00010558650695781532,0.001278063301160445
0.15915915915915915,-0.004330772026090404,0.00010945504639523103,0.0012983580394711992
0.16216216216216217,-0.004330437447615556,0.00011338429761116337,0.0013184974036498168
0.16516516516516516,-0.004330090979011983,0.00011737379453912399,0.0013384817416786862
0.16816816816816815,-0.0043297324400601135,0.00012142307215761523,0.001358311401540178
0.17117117117117117,-0.00432936165193528,0.00012553166649013144,0.0013779867312166735
0.17417417417417416,-0.004328978437204568,0.00012969911460515983,0.0013975080786905588
0.17717717717717718,-0.004328582619823675,0.00013392495461618027,0.0014168757919441992
0.18018018018018017,-0.004328174025133781,0.00013820872568166332,0.001436090218959983
0.1831831831831832,-0.004327752479858397,0.00014254996800507373,0.001455151707720286
0.18618618618618618,-0.004327317812100245,0.00014694822283486605,0.0014740606062074897
0.1891891891891892,-0.004326869851338105,0.00015140303246448709,0.0014928172624039697
0.1921921921921922,-0.004326408428423676,0.00015591394023237886,0.0015114220242921058
0.19519519519519518,-0.004325933375578463,0.0001604804905219713,0.0015298752398542736
0.1981981981981982,-0.004325444526390597,0.00016510222876169002,0.0015481772570728547
0.2012012012012012,-0.004324941715811738,0.00016977870142495023,0.0015663284239302334
0.2042042042042042,-0.004324424780153905,0.00017450945603016067,0.0015843290884087844
0.2072072072072072,-0.0043238935570863585,0.0001792940411407219,0.0016021795984908797
0.21021021021021022,-0.0043233478856324606,0.0001841320063650277,0.0016198803021589088
0.2132132132132132,-0.004322787606166516,0.0001890229023564598,0.0016374315473952428
0.21621621621621623,-0.004322212560410669,0.00019396628081339712,0.0016548336821822626
0.21921921921921922,-0.004321622591431728,0.00019896169447920862,0.0016720870545023497
0.2222222222222222,-0.004321017543638058,0.00020400869714225635,0.001689192012337879
0.22522522522522523,-0.004320397262776424,0.00020910684363589023,0.00170614890367123
0.22822822822822822,-0.004319761595928858,0.00021425568983845936,0.0017229580764847848
0.23123123123123124,-0.004319110391509528,0.00021945479267329983,0.001739619878760922
0.23423423423423423,-0.004318443499261589,0.0002247037101087404,0.0017561346584820158
0.23723723723723725,-0.0043177607702540415,0.00023000200115810333,0.0017725027636304458
0.24024024024024024,-0.00431706205687862,0.00023534922587970354,0.0017887245421885972
0.24324324324324323,-0.0043163472128466135,0.00024074494537684667,0.0018048003421388403
0.24624624624624625,-0.0043156160931857755,0.0002461887217978288,0.0018207305114635603
0.24924924924924924,-0.004314868554237138,0.0002516801183359437,0.0018365153981451336
0.25225225225225223,-0.004314104453651903,0.0002572186992294706,0.001852155350165937
0.2552552552552553,-0.004313323650388307,0.0002628040297616872,0.0018676507155083498
0.25825825825825827,-0.004312526004708458,0.00026843567626085615,0.0018830018421547548
0.26126126126126126,-0.004311711378175224,0.00027411320610023983,0.0018982090780875283
0.26426426426426425,-0.004310879633649075,0.0002798361876980881,0.0019132727712890488
0.26726726726726724,-0.004310030635284958,0.0002856041905176432,0.0019281932697416942
0.2702702702702703,-0.004309164248529155,0.00029141678506714006,0.0019429709214278438
0.2732732732732733,-0.004308280340116137,0.0002972735428998074,0.001957606074329881
0.27627627627627627,-0.004307378778065445,0.0003031740366138645,0.0019720990764301766
0.27927927927927926,-0.004306459431678528,0.000309117839852522,0.001986450275711114
0.2822822822822823,-0.004305522171535622,0.0003151045273039853,0.002000660020155071
0.2852852852852853,-0.004304566869492608,0.00032113367470144676,0.0020147286577444296
0.2882882882882883,-0.004303593398677865,0.0003272048588230979,0.002028656536461561
0.2912912912912913,-0.004302601633489151,0.00033331765749211725,0.0020424440042888523
0.29429429429429427,-0.004301591449590446,0.0003394716495766772,0.0020560914092086773
0.2972972972972973,-0.004300562723908817,0.0003456664149899425,0.0020695990992034164
0.3003003003003003,-0.004299515334631295,0.0003519015346900682,0.00208296742225545
0.3033033033033033,-0.004298449161201714,0.0003581765906802044,0.0020961967263471524
0.3063063063063063,-0.004297364084317596,0.0003644911660084919,0.002109287359460905
0.30930930930930933,-0.004296259985926991,0.0003708448447680625,0.0021222396695790902
0.3123123123123123,-0.00429513674922536,0.00037723721209704185,0.0021350540046840795
0.3153153153153153,-0.004293994258652419,0.00038366785417854655,0.0021477307127582574
0.3183183183183183,-0.004292832399889006,0.0003901363582406864,0.002160270141784
0.3213213213213213,-0.0042916510598539565,0.00039664231255656245,0.0021726726397436865
0.32432432432432434,-0.004290450126700941,0.0004031853064442679,0.0021849385546196965
0.32732732732732733,-0.004289229489815352,0.0004097649302668893,0.00219706823439441
0.3303303303303303,-0.004287989039811145,0.0004163807754325045,0.002209062027050201
0.3333333333333333,-0.004286728668527706,0.0004230324343941817,0.002220920280569453
0.3363363363363363,-0.004285448269026735,0.0004297195006499842,0.002232643342934544
0.33933933933933935,-0.0042841477355890665,0.0004364415687429662,0.0022442315621278514
0.34234234234234234,-0.004282826963711571,0.00044319823426117286,0.002255685286131756
0.34534534534534533,-0.004281485850103994,0.00044998909383764407,0.0022670048629286335
0.3483483483483483,-0.004280124292685817,0.00045681374515041005,0.0022781906405008635
0.35135135135135137,-0.004278742190583146,0.00046367178692249215,0.0022892429668308267
0.35435435435435436,-0.0042773394441255295,0.0004705628189219061,0.0023001621899009003
0.35735735735735735,-0.004275915954842866,0.00047748644196165873,0.0023109486576934667
0.36036036036036034,-0.004274471625462235,0.0004844422578997496,0.002321602718190899
0.36336336336336333,-0.004273006359904763,0.0004914298696391693,0.0023321247193755796
0.3663663663663664,-0.004271520063282504,0.000498448881127901,0.002342515009229886
0.36936936936936937,-0.0042700126418952775,0.0005054988973589205,0.002352773935736196
0.37237237237237236,-0.0042684840032275505,0.0005125795243701944,0.002362901846876892
0.37537537537537535,-0.004266934055945281,0.000519690369244684,0.002372899090634352
0.3783783783783784,-0.004265362709892791,0.0005268310401103401,0.002382766014990949
0.3813813813813814,-0.004263769876089634,0.0005340011461401066,0.002392502967929067
0.3843843843843844,-0.0042621554667274355,0.0005412002975519203,0.0024021102974310857
0.38738738738738737,-0.004260519395166788,0.0005484281056087083,0.0024115883514793817
0.39039039039039036,-0.004258861575934076,0.0005556841826183916,0.0024209374780563356
0.3933933933933934,-0.004257181924718358,0.0005629681419338822,0.002430158025144323
0.3963963963963964,-0.004255480358368237,0.0005702795979530854,0.0024392503407257263
0.3993993993993994,-0.004253756794888697,0.0005776181661188966,0.0024482147727829208
0.4024024024024024,-0.004252011153437993,0.000584983462919207,0.002457051669298286
0.40540540540540543,-0.004250243354324488,0.0005923751058868961,0.0024657613782542043
0.4084084084084084,-0.004248453319003526,0.0005997927135998357,0.002474344247633049
0.4114114114114114,-0.004246640970074305,0.0006072359056808934,0.0024828006254172036
0.4144144144144144,-0.004244806231276712,0.000614704302797925,0.002491130859589047
0.4174174174174174,-0.004242949027488216,0.0006221975266637806,0.0024993352981309536
0.42042042042042044,-0.0042410692847207054,0.0006297152000363021,0.002507414289025306
0.42342342342342343,-0.004239166930117353,0.0006372569467183215,0.0025153681802544806
0.4264264264264264,-0.0042372418919495,0.0006448223915576676,0.0025231973198008573
0.4294294294294294,-0.0042352940996134856,0.0006524111604471557,0.0025309020556468134
0.43243243243243246,-0.004233323483627541,0.0006600228803245968,0.0025384827357747314
0.43543543543543545,-0.004231329975628622,0.0006676571791727937,0.002545939708166991
0.43843843843843844,-0.004229313508369283,0.0006753136860195405,0.0025532733208059612
0.44144144144144143,-0.004227274015714552,0.0006829920309376234,0.002560483921674031
0.4444444444444444,-0.004225211432638771,0.0006906918450448212,0.0025675718587535746
0.44744744744744747,-0.0042231256952224745,0.0006984127605039053,0.002574537480026974
0.45045045045045046,-0.004221016740649236,0.0007061544105226372,0.0025813811334766054
0.45345345345345345,-0.004218884507202541,0.0007139164293537728,0.0025881031670848455
0.45645645645645644,-0.004216728934262651,0.0007216984522950601,0.0025947039288340776
0.45945945945945943,-0.004214549962303451,0.000729500115689237,0.002601183766706677
0.4624624624624625,-0.004212347532889334,0.0007373210569240345,0.0026075430286850248
0.46546546546546547,-0.004210121588672041,0.0007451609144321779,0.002613782062751499
0.46846846846846846,-0.004207872073387524,0.0007530193276913811,0.0026199012168884794
0.47147147147147145,-0.004205598931852833,0.0007608959372243534,0.0026259008390783403
0.4744744744744745,-0.004203302109962946,0.0007687903845987939,0.0026317812773034677
0.4774774774774775,-0.0042009815546876555,0.0007767023124273949,0.0026375428795462354
0.4804804804804805,-0.004198637214068412,0.0007846313643678402,0.0026431859937890247
0.48348348348348347,-0.004196269037215195,0.0007925771851228069,0.0026487109680142116
0.48648648648648646,-0.004193876974303383,0.0008005394204399631,0.0026541181502041777
0.4894894894894895,-0.004191460976570591,0.0008085177171119682,0.0026594078883413006
0.4924924924924925,-0.004189020996313563,0.0008165117229764767,0.002664580530407959
0.4954954954954955,-0.004186556986885008,0.0008245210869161326,0.002669636424386531
0.4984984984984985,-0.0041840689026904744,0.0008325454588585721,0.0026745759182593945
0.5015015015015015,-0.004181556699185216,0.0008405844897764261,0.0026793993600089335
0.5045045045045045,-0.004179020332871037,0.0008486378316873136,0.00268410709761752
0.5075075075075075,-0.004176459761293178,0.0008567051376538498,0.0026886994790675384
0.5105105105105106,-0.0041738749430371555,0.0008647860617836392,0.002693176852341366
0.5135135135135135,-0.004171265837725627,0.000872880259229279,0.002697539565421376
0.5165165165165165,-0.004168632406015278,0.0008809873861883605,0.0027017879662899562
0.5195195195195195,-0.004165974609593642,0.0008891070999034638,0.0027059224029294788
0.5225225225225225,-0.004163292411176008,0.0008972390586621645,0.0027099432233223275
0.5255255255255256,-0.004160585774502241,0.0009053829217970282,0.0027138507754508765
0.5285285285285285,-0.0041578546643336635,0.000913538349685611,0.002717645407297507
0.5315315315315315,-0.004155099046449932,0.0009217050037504666,0.0027213274668445976
0.5345345345345345,-0.004152318887645864,0.000929882546459135,0.0027248973020745255
0.5375375375375375,-0.004149514155728334,0.0009380706413241527,0.002728355260969674
0.5405405405405406,-0.00414668481951311,0.000946268952903045,0.002731701691512417
0.5435435435435435,-0.004143830848821727,0.0009544771467983313,0.0027349369416851347
0.5465465465465466,-0.004140952214478356,0.0009626948896575224,0.002738061359470206
0.5495495495495496,-0.0041380488883066445,0.0009709218491731218,0.0027410752928500107
0.5525525525525525,-0.004135120843126605,0.000979157694082625,0.002743979089806927
0.5555555555555556,-0.0041321680527514545,0.0009874020941685183,0.002746773098323334
0.5585585585585585,-0.004129190491984482,0.0009956547202582824,0.0027494576663816077
0.5615615615615616,-0.004126188136615927,0.001003915244224388,0.0027520331419641324
0.5645645645645646,-0.004123160963419812,0.0010121833389842997,0.002754499873053281
0.5675675675675675,-0.004120108950150834,0.0010204586785004725,0.0027568582076314364
0.5705705705705706,-0.004117032075541204,0.001028740937780356,0.002759108493680977
0.5735735735735735,-0.0041139303192975155,0.0010370297928763879,0.002761251079184278
0.5765765765765766,-0.004110803662097622,0.0010453249208860036,0.002763286312123723
0.5795795795795796,-0.004107652085587469,0.0010536259999516246,0.0027652145404816865
0.5825825825825826,-0.004104475572377984,0.0010619327092606689,0.002767036112240552
0.5855855855855856,-0.00410127410604192,0.0010702447290455454,0.0027687513753826944
0.5885885885885885,-0.004098047671110725,0.0010785617405836537,0.0027703606778904932
0.5915915915915916,-0.004094796253071407,0.001086883426197388,0.0027718643677463297
0.5945945945945946,-0.004091519838363384,0.0010952094692541323,0.002773262792932579
0.5975975975975976,-0.004088218414375364,0.0011035395541662645,0.002774556301431621
0.6006006006006006,-0.004084891969442191,0.0011118733663911548,0.0027757452412258393
0.6036036036036035,-0.004081540492841704,0.0011202105924311625,0.0027768299602976046
0.6066066066066066,-0.004078163974791624,0.0011285509198336425,0.0027778108066293
0.6096096096096096,-0.004074762406446386,0.0011368940371909403,0.0027786881282033053
0.6126126126126126,-0.004071335779894022,0.0011452396341403936,0.002779462273001995
0.6156156156156156,-0.0040678840881530134,0.0011535874013643332,0.0027801335890077564
0.6186186186186187,-0.004064407325169145,0.00116193703059008,0.0027807024242029574
0.6216216216216216,-0.004060905485812391,0.0011702882145899483,0.0027811691265699867
0.6246246246246246,-0.004057378565873754,0.0011786406471812445,0.0027815340440912146
0.6276276276276276,-0.0040538265620621355,0.001186994023226268,0.0027817975247490254
0.6306306306306306,-0.004050249472001198,0.0011953480386323089,0.0027819599165257967
0.6336336336336337,-0.004046647294226226,0.0012037023903516502,0.002782021567403906
0.6366366366366366,-0.004043020028180993,0.0012120567763815654,0.002781982825365734
0.6396396396396397,-0.004039367674214606,0.0012204108957643229,0.002781844038393657
0.6426426426426426,-0.004035690233578397,0.0012287644485871807,0.002781605554470056
0.6456456456456456,-0.004031987708422756,0.0012371171359823925,0.0027812677215773123
0.6486486486486487,-0.0040282601017940034,0.0012454686601271986,0.002780830887697797
0.6516516516516516,-0.004024507417631263,0.0012538187242438356,0.002780295400813895
0.6546546546546547,-0.004020729660763305,0.0012621670325995318,0.0027796616089079823
0.6576576576576576,-0.004016926836905423,0.0012705132905065062,0.0027789298599624405
0.6606606606606606,-0.004013098952656287,0.001278857204321972,0.002778100501959647
0.6636636636636637,-0.004009246015494805,0.0012871984814481314,0.0027771738828819797
0.6666666666666666,-0.0040053680337769956,0.0012955368303321812,0.0027761503507118183
0.6696696696696697,-0.004001465016732834,0.001303871960466311,0.00277503025343154
0.6726726726726726,-0.003997536974463131,0.0013122035823876982,0.0027738139390235277
0.6756756756756757,-0.003993583917936379,0.0013205314076785186,0.0027725017554701544
0.6786786786786787,-0.003989605858985621,0.001328855148965935,0.0027710940507538044
0.6816816816816816,-0.003985602810305317,0.001337174519922105,0.0027695911728568526
0.6846846846846847,-0.003981574785448198,0.001345489235264176,0.002767993469761678
0.6876876876876877,-0.003977521798822136,0.001353799010754291,0.002766301289450663
0.6906906906906907,-0.003973443865686994,0.0013621035631995822,0.0027645149799061836
0.6936936936936937,-0.003969341002151495,0.0013704026104521744,0.002762634889110619
0.6966966966966966,-0.003965213225170093,0.0013786958714091864,0.002760661365046347
0.6996996996996997,-0.003961060552539817,0.0013869830660127268,0.002758594755695749
