time,position,velocity,acceleration
0.0,-0.005116711509297822,0.0,0.0
0.020134228187919462,-0.005116696196669744,2.273889144639626e-06,0.0002243468195273126
0.040268456375838924,-0.005116590243979514,8.973058898200292e-06,0.00043959849772243903
0.060402684563758385,-0.00511630638678359,1.9915631348813305e-05,0.0006458787780048627
0.08053691275167785,-0.005115760997527792,3.492222006286935e-05,0.0008433114037940653
0.10067114093959731,-0.005114874035383346,5.381593008499364e-05,0.0010320201185095388
0.12080536912751677,-0.005113568996082882,7.642235793805813e-05,0.001212128665570765
0.14093959731543623,-0.005111772861756428,0.00010256959162318062,0.001383760788397229
0.1610738255033557,-0.00510941605076744,0.0001320882106197233,0.0015470402304084228
0.18120805369127516,-0.005106432367548788,0.00016481128588529325,0.0017020907350238246
0.20134228187919462,-0.005102758952438796,0.00020057437985574063,0.0018490360456629223
0.22147651006711408,-0.005098336231517217,0.00023921554644516286,0.0019879999057452018
0.24161073825503354,-0.005093107866441258,0.0002805753310459011,0.0021191060586901473
0.261744966442953,-0.0050870207042815925,0.00032449677052853883,0.0022424782479172492
0.28187919463087246,-0.005080024727358357,0.00037082539324190863,0.002358240216845985
0.30201342281879195,-0.005072073003077162,0.0004194092190130832,0.002466515708895847
0.3221476510067114,-0.005063121633765119,0.0004700987591473825,0.00256742846748632
0.3422818791946308,-0.005053129706506817,0.0005227470164283717,0.002661102236036883
0.3624161073825503,-0.005042059242980354,0.0005772094851178586,0.00274766075796703
0.3825503355704698,-0.005029875149293352,0.0006333441509558963,0.0028272277766962428
0.40268456375838924,-0.005016545165818929,0.0006910114911607848,0.002899927035644007
0.42281879194630867,-0.005002039817031745,0.0007500744744290649,0.0029658822782298072
0.44295302013422816,-0.004986332361344007,0.0008103985609355258,0.0030252172478731324
0.46308724832214765,-0.004969398740941445,0.0008718517023331984,0.003078055687993463
0.4832214765100671,-0.004951217531619357,0.0009343043417533599,0.0031245213420102898
0.5033557046979865,-0.004931769892618606,0.0009976294138055314,0.0031647379533430954
0.523489932885906,-0.004911039516461616,0.0010617023445774806,0.003198829265411367
0.5436241610738255,-0.004889012578788394,0.0011264010516352173,0.0032269190216345878
0.5637583892617449,-0.004865677688192541,0.001191605944022997,0.0032491309654322457
0.5838926174496644,-0.0048410258360572465,0.001257199922263321,0.0032655888402238252
0.6040268456375839,-0.004815050346391306,0.0013230683783569323,0.0032764163894288107
0.6241610738255033,-0.004787746825665135,0.0013890991957828227,0.0032817373564666898
0.6442953020134228,-0.004759113112646763,0.0014551827494982245,0.003281675484756948
0.6644295302013422,-0.004729149228237854,0.0015212119059386177,0.0032763545177190686
0.6845637583892616,-0.0046978573253097095,0.0015870820230177267,0.0032658981987725394
0.7046979865771812,-0.0046652416385392775,0.0016526909501275175,0.003250430271336843
0.7248322147651006,-0.0046313084342451665,0.001717939028138205,0.003230074478831469
0.7449664429530201,-0.004596065960223645,0.001782729089398247,0.0032049545646759023
0.7651006711409396,-0.004559524395584653,0.0018469664577343444,0.0031751942722896254
0.785234899328859,-0.004521695800587821,0.0019105589484514453,0.003140917345092129
0.8053691275167785,-0.004482594066478457,0.0019734168683327408,0.003102247526502891
0.8255033557046979,-0.004442234865323573,0.002035453015639667,0.003059308559941402
0.8456375838926173,-0.004400635599847891,0.0020965826801119056,0.003012224188827148
0.8657718120805369,-0.004357815353269848,0.0021567236429673835,0.0029611181565796156
0.8859060402684563,-0.004313794839137593,0.002215796176902267,0.002906114206618284
0.9060402684563758,-0.004268596351165026,0.0022737230460909757,0.0028473360823626464
0.9261744966442953,-0.0042222437130677755,0.002330429506186168,0.002784907527232183
0.9463087248322147,-0.004174762228399219,0.002385843304318746,0.0027189522846463813
0.9664429530201342,-0.004126178630386502,0.002439894679097862,0.0026495940980247267
0.9865771812080536,-0.004076521031766525,0.0024925163606109068,0.0025769567107867064
1.006711409395973,-0.0040258188746219664,0.0025436435704235213,0.0025011638663518026
1.0268456375838926,-0.0039741028802172925,0.002593214021579588,0.002422339308139503
1.046979865771812,-0.0039214049988347596,0.0026411679186012335,0.002340606779569294
1.0671140939597314,-0.00386775835961042,0.002687447957488832,0.002256090024060659
1.087248322147651,-0.0038131972203701396,0.002731999325720999,0.002168912785033085
1.1073825503355703,-0.0037577569174656,0.0027747697022545963,0.002079198805906057
1.1275167785234899,-0.0037014738156103087,0.0028157092575247324,0.0019870718300990593
1.1476510067114094,-0.0036443852577156067,0.0028547706534447575,0.0018926556010315804
1.1677852348993287,-0.0035865295147266794,0.0028919090434062662,0.0017960738621231056
1.1879194630872483,-0.0035279457354585628,0.0029270820722791012,0.0016974503567931164
1.2080536912751678,-0.0034686738964321505,0.0029602498764113453,0.0015969088284611016
1.2281879194630871,-0.0034087547517102097,0.002991375083629329,0.0014945730205465466
1.2483221476510067,-0.003348229782733378,0.003020422813237627,0.0013905666764689362
1.268456375838926,-0.0032871411481561856,0.003047360676019061,0.0012850135396477586
1.2885906040268456,-0.0032255316336830477,0.003072158774234691,0.0011780373535024945
1.308724832214765,-0.00316344460190429,0.0030947897016238286,0.0010697618614526321
1.3288590604026844,-0.0031009239421321442,0.003115228543404025,0.0009603108069176592
1.348993288590604,-0.0030380140202367614,0.0031334528762710792,0.0008498079333170566
1.3691275167785233,-0.002974759628482224,0.003149442768399033,0.0007383769840703142
1.3892617449664428,-0.0029112059353625466,0.0031631807794401745,0.0006261417025969144
1.4093959731543624,-0.00284739843543769,0.003174651960525035,0.0005132258323163439
1.4295302013422817,-0.0027833828991695704,0.003183843854262392,0.00039975311664808885
1.4496644295302012,-0.002719205322758062,0.0031907464947392664,0.00028584729901163543
1.4697986577181208,-0.0026549118779770125,0.0031953524075209222,0.00017163212282646657
1.4899328859060401,-0.002590548862010247,0.0031976566096508733,5.723133151207087e-05
1.5100671140939597,-0.0025261626472875757,0.0031976566096508733,-5.7231331512069133e-05
1.5302013422818792,-0.0024617996313208096,0.0031953524075209227,-0.000171632122826467
1.5503355704697985,-0.0023975061865397604,0.0031907464947392656,-0.0002858472990116337
1.570469798657718,-0.002333328610128252,0.0031838438542623913,-0.0003997531166480884
1.5906040268456374,-0.0022693130738601327,0.003174651960525035,-0.0005132258323163443
1.610738255033557,-0.002205505573935276,0.0031631807794401745,-0.0006261417025969127
1.6308724832214765,-0.002141951880815598,0.003149442768399033,-0.0007383769840703133
1.6510067114093958,-0.002078697489061061,0.0031334528762710792,-0.0008498079333170555
1.6711409395973154,-0.002015787567165679,0.003115228543404025,-0.0009603108069176577
1.6912751677852347,-0.001953266907393533,0.003094789701623828,-0.001069761861452631
1.7114093959731542,-0.001891179875614775,0.003072158774234693,-0.0011780373535024923
1.7315436241610738,-0.0018295703611416365,0.003047360676019061,-0.0012850135396477575
1.751677852348993,-0.001768481726564444,0.003020422813237629,-0.0013905666764689355
1.7718120805369126,-0.001707956757587613,0.0029913750836293293,-0.0014945730205465464
1.7919463087248322,-0.0016480376128656712,0.0029602498764113453,-0.0015969088284611011
1.8120805369127515,-0.0015887657738392605,0.0029270820722791012,-0.0016974503567931145
1.832214765100671,-0.0015301819945711431,0.0028919090434062662,-0.0017960738621231032
1.8523489932885906,-0.0014723262515822155,0.002854770653444758,-0.0018926556010315804
1.87248322147651,-0.001415237693687514,0.002815709257524733,-0.0019870718300990585
1.8926174496644295,-0.001358954591832222,0.002774769702254597,-0.0020791988059060554
1.9127516778523488,-0.0013035142889276825,0.0027319993257209994,-0.0021689127850330835
1.9328859060402683,-0.0012489531496874024,0.002687447957488832,-0.002256090024060658
1.9530201342281879,-0.001195306510463063,0.0026411679186012335,-0.0023406067795692926
1.9731543624161072,-0.0011426086290805297,0.0025932140215795883,-0.0024223393081395025
1.9932885906040267,-0.0010908926346758563,0.0025436435704235217,-0.002501163866351802
2.013422818791946,-0.0010401904775312995,0.002492516360610908,-0.0025769567107867047
2.033557046979866,-0.0009905328789113208,0.0024398946790978615,-0.002649594098024727
2.053691275167785,-0.0009419492808986021,0.0023858433043187468,-0.002718952284646381
2.0738255033557045,-0.0008944677962300479,0.002330429506186168,-0.002784907527232182
2.093959731543624,-0.0008481151581327969,0.0022737230460909775,-0.002847336082362645
2.1140939597315436,-0.0008029166701602284,0.002215796176902268,-0.0029061142066182837
2.134228187919463,-0.0007588961560279764,0.0021567236429673826,-0.0029611181565796143
2.154362416107382,-0.0007160759094499308,0.0020965826801119074,-0.003012224188827148
2.174496644295302,-0.0006744766439742486,0.0020354530156396675,-0.0030593085599414033
2.1946308724832213,-0.0006341174428193664,0.001973416868332741,-0.0031022475265028914
2.2147651006711406,-0.0005950157087100021,0.0019105589484514462,-0.0031409173450921268
2.2348993288590604,-0.0005571871137131674,0.0018469664577343448,-0.003175194272289626
2.2550335570469797,-0.0005206455490741778,0.0017827290893982475,-0.0032049545646759027
2.275167785234899,-0.00048540307505265607,0.0017179390281382067,-0.0032300744788314704
2.295302013422819,-0.0004514698707585444,0.0016526909501275177,-0.003250430271336844
2.315436241610738,-0.000418854183988114,0.001587082023017727,-0.003265898198772538
2.3355704697986575,-0.00038756228105996923,0.001521211905938619,-0.0032763545177190686
2.3557046979865772,-0.00035759839665105894,0.0014551827494982245,-0.003281675484756948
2.3758389261744965,-0.00032896468363268665,0.001389099195782823,-0.00328173735646669
2.395973154362416,-0.00030166116290651466,0.0013230683783569336,-0.003276416389428811
2.4161073825503356,-0.00027568567324057507,0.0012571999222633207,-0.0032655888402238252
2.436241610738255,-0.00025103382110527986,0.0011916059440229977,-0.0032491309654322465
2.4563758389261743,-0.000227698930509426,0.0011264010516352182,-0.0032269190216345886
2.4765100671140936,-0.0002056719928362059,0.0010617023445774819,-0.0031988292654113676
2.4966442953020134,-0.0001849416166792151,0.0009976294138055323,-0.0031647379533430967
2.5167785234899327,-0.00016549397767846272,0.00093430434175336,-0.003124521342010291
2.536912751677852,-0.00014731276835637711,0.0008718517023331992,-0.003078055687993466
2.557046979865772,-0.00013037914795381561,0.0008103985609355258,-0.003025217247873133
2.577181208053691,-0.00011467169226607433,0.0007500744744290657,-0.0029658822782298085
2.5973154362416104,-0.00010016634347889432,0.0006910114911607857,-0.0028999270356440073
2.61744966442953,-8.683636000447132e-05,0.0006333441509558969,-0.0028272277766962428
2.6375838926174495,-7.465226631746496e-05,0.0005772094851178588,-0.00274766075796703
2.657718120805369,-6.358180279100552e-05,0.0005227470164283725,-0.0026611022360368847
2.6778523489932886,-5.358987553270344e-05,0.00047009875914738277,-0.002567428467486317
2.697986577181208,-4.463850622065837e-05,0.0004194092190130834,-0.0024665157088958473
2.7181208053691273,-3.66867819394663e-05,0.000370825393241909,-0.002358240216845986
2.7382550335570466,-2.9690805016229044e-05,0.0003244967705285402,-0.00224247824791725
2.7583892617449663,-2.3603642856562258e-05,0.0002805753310459011,-0.0021191060586901486
2.7785234899328857,-1.837527778060459e-05,0.0002392155464451637,-0.0019879999057452026
2.798657718120805,-1.3952556859025267e-05,0.0002005743798557414,-0.0018490360456629247
2.8187919463087248,-1.0279141749033116e-05,0.00016481128588529277,-0.0017020907350238246
2.838926174496644,-7.295458530385223e-06,0.0001320882106197233,-0.0015470402304084239
2.8590604026845634,-4.9386475413949494e-06,0.00010256959162318073,-0.0013837607883972342
2.879194630872483,-3.142513214940721e-06,7.642235793805786e-05,-0.001212128665570765
2.8993288590604025,-1.8374739144745869e-06,5.3815930084993715e-05,-0.0010320201185095395
2.919463087248322,-9.505117700304802e-07,3.49222200628703e-05,-0.0008433114037940679
2.9395973154362416,-4.051225142328765e-07,1.9915631348814633e-05,-0.0006458787780048603
2.959731543624161,-1.2126531830528289e-07,8.973058898199338e-06,-0.0004395984977224396
2.9798657718120802,-1.5312628078665505e-08,2.2738891446406893e-06,-0.0002243468195273165
3.0,0.0,0.0,0.0
